#time "field x" "field y" "field z"
### ### ### ###
0.0 0.008800043553362478 0.0007735545751600837 0.013327746279862726
0.01 0.00886703154015242 0.0007810656830573534 0.013331160613046473
0.02 0.008933196652757509 0.0007884631231509986 0.013334344341358339
0.03 0.008998493903270783 0.0007957474547380964 0.013337298688782476
0.04 0.009062879623284522 0.0008029192647406465 0.013340024892025007
0.05 0.00912631162565483 0.0008099791666398015 0.01334252419897245
0.06 0.009188749357896603 0.0008169277993300876 0.013344797867106777
0.07 0.009250154046277976 0.0008237658258999554 0.013346847161885866
0.08 0.009310488829778082 0.0008304939323454212 0.01334867335509667
0.09 0.009369718883172012 0.0008371128262239409 0.01335027772319017
0.1 0.009427811528610382 0.0008436232352559015 0.013351661545605437
0.11 0.009484736335168647 0.0008500259058812519 0.013352826103091549
0.12 0.009540465205948749 0.000856321601779056 0.013353772676035004
0.13 0.009594972452425302 0.0008625111023576795 0.013354502542800495
0.14 0.009648234855836428 0.0008685952012234912 0.013355016978092514
0.15 0.009700231715525311 0.0008745747046356969 0.013355317251345134
0.16 0.00975094488424244 0.0008804504299550274 0.013355404625146668
0.17 0.009800358790517844 0.0008862232040936662 0.013355280353705805
0.18 0.009848460448307504 0.0008918938619736799 0.013354945681365409
0.19 0.009895239454207741 0.0008974632450009217 0.013354401841169317
0.2 0.009940687972614888 0.0009029321995610018 0.013353650053487683
0.21 0.009984800709283728 0.0009083015755437266 0.013352691524705133
0.22 0.010027574873808655 0.0009135722249018407 0.013351527445976251
0.23 0.010069010131612684 0.0009187450002496049 0.013350158992051712
0.24 0.010109108546084518 0.0009238207535063152 0.01334858732017846
0.25 0.010147874511549242 0.0009288003345893502 0.013346813569076346
0.26 0.010185314677798716 0.0009336845901608865 0.013344838857993245
0.27 0.010221437866934845 0.0009384743624319893 0.013342664285840513
0.28 0.010256254983305447 0.0009431704880272255 0.013340290930409324
0.29 0.010289778917324249 0.0009477737969125519 0.01333771984766901
0.3 0.010322024443975545 0.0009522851113886351 0.01333495207114701
0.31 0.010353008116804983 0.0009567052451514271 0.013331988611390498
0.32 0.010382748158190437 0.0009610350024212156 0.013328830455508528
0.33 0.010411264346675912 0.0009652751771410436 0.013325478566793704
0.34 0.010438577902132434 0.0009694265522448946 0.013321933884421894
0.35000000000000003 0.010464711369486828 0.0009734898989956038 0.013318197323227992
0.36 0.010489688501731743 0.0009774659763921753 0.013314269773555341
0.37 0.010513534142896106 0.0009813555306456938 0.013310152101176791
0.38 0.01053627411162239 0.0009851592947227703 0.01330584514728408
0.39 0.010557935085954574 0.000988877987955084 0.013301349728543058
0.4 0.010578544489902763 0.0009925123157133737 0.01329666663721128
0.41000000000000003 0.010598130382303683 0.0009960629691438945 0.013291796641314775
0.42 0.010616721348453893 0.0009995306249651536 0.013286740484880611
0.43 0.010634346394945777 0.0010029159453225978 0.013281498888221414
0.44 0.010651034848089628 0.0010062195776986203 0.013276072548268765
0.45 0.010666816256259723 0.0010094421548752781 0.01327046213895121
0.46 0.010681720296455723 0.0010125842949468306 0.013264668311613565
0.47000000000000003 0.010695776685326322 0.0010156466013792262 0.013258691695473874
0.48 0.010709015094856602 0.0010186296631135479 0.01325253289811403
0.49 0.01072146507288011 0.0010215340547104143 0.013246192506000854
0.5 0.01073315596853341 0.0010243603365322471 0.013239671085033822
0.51 0.010744116862734188 0.0010271090549604225 0.01323296918111613
0.52 0.010754376503725183 0.0010297807426442264 0.013226087320745625
0.53 0.010763963247692765 0.0010323759187786411 0.013219026011622491
0.54 0.010772905004437014 0.0010348950894080399 0.013211785743270534
0.55 0.010781229188039192 0.0010373387477528718 0.013204366987668865
0.56 0.010788962672447241 0.0010397073745566023 0.013196770199891628
0.5700000000000001 0.010796131751873852 0.0010420014384501565 0.013188995818752516
0.58 0.010802762105880765 0.0010442213963313036 0.013181044267451975
0.59 0.010808878769002848 0.0010463676937564315 0.013172915954224425
0.6 0.010814506104749788 0.0010484407653424297 0.013164611272983547
0.61 0.010819667783807527 0.001050441035176322 0.013156130603963286
0.62 0.010824386766250329 0.00105236891723061 0.013147474314353019
0.63 0.010828685287565422 0.00105422481578225 0.01313864275892461
0.64 0.010832584848282829 0.0010560091258334694 0.01312963628065075
0.65 0.010836106206998562 0.00105772223353263 0.013120455211311843
0.66 0.010839269376577447 0.0010593645165935665 0.01311109987209136
0.67 0.010842093623315565 0.0010609363447118903 0.013101570574157935
0.68 0.010844597468847902 0.0010624380799769684 0.01309186761923322
0.6900000000000001 0.01084679869458341 0.0010638700772782836 0.013081991300145
0.7000000000000001 0.010848714348454289 0.0010652326847051532 0.013071941901364442
0.71 0.010850360753772631 0.0010665262439387528 0.013061719699527201
0.72 0.010851753519986686 0.001067751090635644 0.013051324963937768
0.73 0.01085290755514173 0.001068907554801996 0.013040757957056729
0.74 0.010853837079851401 0.0010699959611579094 0.013030018934970605
0.75 0.010854555642599406 0.0010710166294911896 0.013019108147844292
0.76 0.010855076136190802 0.0010719698750002492 0.013008025840355732
0.77 0.01085541081518976 0.001072856008625632 0.012996772252113195
0.78 0.01085557131418333 0.00107367533736996 0.01298534761805487
0.79 0.010855568666721629 0.0010744281646060585 0.012973752168831123
0.8 0.010855413324795445 0.0010751147903731075 0.0129619861311696
0.81 0.010855115178719343 0.0010757355116607671 0.012950049728223504
0.8200000000000001 0.010854683577299597 0.0010762906226812591 0.012937943179903058
0.8300000000000001 0.010854127348173152 0.0010767804151293949 0.012925666703190956
0.84 0.010853454818216406 0.0010772051784307428 0.012913220512441754
0.85 0.010852673833928555 0.001077565199977938 0.012900604819665961
0.86 0.010851791781702598 0.0010778607653553992 0.012887819834799044
0.87 0.01085081560790888 0.001078092158552648 0.012874865765955854
0.88 0.010849751838721312 0.001078259662166397 0.012861742819671205
0.89 0.010848606599622652 0.0010783635575917815 0.012848451201126643
0.9 0.01084738563453869 0.0010784041252029086 0.012834991114364279
0.91 0.010846094324550817 0.0010783816445231363 0.012821362762488145
0.92 0.010844737706148178 0.0010782963943852934 0.012807566347853478
0.93 0.010843320488984147 0.0010781486530822668 0.012793602072244453
0.9400000000000001 0.010841847073109482 0.0010779386985082333 0.012779470137040979
0.9500000000000001 0.010840321565659197 0.0010776668082909213 0.012765170743375015
0.96 0.01083874779697378 0.0010773332599152375 0.012750704092276889
0.97 0.010837129336142217 0.0010769383308386112 0.012736070384812132
0.98 0.01083546950595782 0.0010764822985984363 0.012721269822209296
0.99 0.010833771397280407 0.0010759654409119121 0.012706302605979207
1.0 0.010832037882804188 0.0010753880357686934 0.01269116893802626
1.01 0.010830271630231331 0.001074750361516639 0.012675869020751969
1.02 0.010828475114857355 0.0010740526969410464 0.012660403057151296
1.03 0.010826650631571108 0.001073295321337655 0.012644771250902373
1.04 0.010824800306282988 0.001072478514579783 0.01262897380644954
1.05 0.010822926106787457 0.0010716025571798746 0.012613010929080735
1.06 0.010821029853076678 0.0010706677303458166 0.012596882824998929
1.07 0.01081911322711486 0.0010696743160322226 0.01258058970138855
1.08 0.010817177782090471 0.0010686225969871088 0.012564131766476699
1.09 0.010815224951163226 0.001067512856794081 0.012547509229590012
1.1 0.010813256055719877 0.0010663453799104352 0.01253072230120701
1.11 0.010811272313158742 0.0010651204517013037 0.012513771193006411
1.12 0.010809274844218068 0.0010638383584701946 0.012496656117911939
1.1300000000000001 0.010807264679870058 0.001062499387486072 0.012479377290133277
1.1400000000000001 0.010805242767794073 0.0010611038270072338 0.012461934925204032
1.1500000000000001 0.010803209978451297 0.0010596519663022066 0.012444329240016542
1.16 0.010801167110777292 0.001058144095667814 0.012426560452854033
1.17 0.010799114897509631 0.0010565805064446402 0.012408628783419912
1.18 0.010797054010170863 0.0010549614910300893 0.012390534452864959
1.19 0.01079498506372145 0.001053287342889103 0.012372277683812036
1.2 0.010792908620902066 0.001051558356562855 0.012353858700378922
1.21 0.010790825196281103 0.0010497748276754046 0.012335277728199113
1.22 0.010788735260021939 0.0010479370529385846 0.012316534994440957
1.23 0.010786639241389648 0.0010460453301551827 0.012297630727825063
1.24 0.010784537532007657 0.0010440999582205296 0.01227856515864039
1.25 0.010782430488882944 0.001042101237122691 0.012259338518758765
1.26 0.01078031843721029 0.00104004946794126 0.012239951041648251
1.27 0.010778201672973038 0.001037944952844958 0.012220402962385381
1.28 0.01077608046534907 0.0010357879950880424 0.012200694517666175
1.29 0.010773955058937329 0.0010335788990057128 0.012180825945816372
1.3 0.010771825675815213 0.0010313179700084762 0.01216079748680062
1.31 0.010769692517438721 0.0010290055145756659 0.012140609382230888
1.32 0.010767555766395542 0.0010266418402481096 0.012120261875374145
1.33 0.010765415588020404 0.0010242272556200392 0.012099755211159297
1.34 0.010763272131882424 0.0010217620703302755 0.012079089636183496
1.35 0.01076112553315734 0.001019246595052836 0.012058265398717958
1.36 0.010758975913884411 0.0010166811414868547 0.012037282748713123
1.37 0.010756823384125414 0.0010140660223460533 0.01201614193780341
1.3800000000000001 0.01075466804302616 0.001011401551347643 0.011994843219311487
1.3900000000000001 0.010752509979791552 0.0010086880432008108 0.011973386848252195
1.4000000000000001 0.010750349274579367 0.001005925813594768 0.011951773081335944
1.41 0.010748185999318418 0.0010031151791864274 0.011930002176972104
1.42 0.01074602021845788 0.0010002564575877259 0.0119080743952716
1.43 0.010743851989652782 0.00099734996735262 0.011885989998049646
1.44 0.01074168136439017 0.0009943960279637986 0.01186374924882803
1.45 0.010739508388560848 0.0009913949598191253 0.011841352412837194
1.46 0.010737333102982412 0.000988347084217829 0.011818799757018026
1.47 0.010735155543873574 0.000985252723346491 0.011796091550023586
1.48 0.010732975743290667 0.0009821122002648048 0.011773228062220552
1.49 0.010730793729520264 0.0009789258388911736 0.011750209565690504
1.5 0.010728609527441181 0.0009756939639881251 0.011727036334231082
1.51 0.010726423158850343 0.000972416901147573 0.011703708643356965
1.52 0.010724234642760615 0.0009690949767759524 0.011680226770300766
1.53 0.010722043995670229 0.0009657285180792161 0.011656590994013727
1.54 0.010719851231809817 0.0009623178530477228 0.011632801595166406
1.55 0.010717656363361907 0.0009588633104410168 0.01160885885614914
1.56 0.010715459400665418 0.0009553652197725145 0.011584763061072503
1.57 0.010713260352396552 0.0009518239112941192 0.011560514495767601
1.58 0.010711059225735509 0.0009482397159807309 0.011536113447786331
1.59 0.010708856026513409 0.000944612965514709 0.011511560206401546
1.6 0.010706650759350882 0.000940943992270279 0.01148685506260712
1.61 0.010704443427778043 0.0009372331292978506 0.011461998309117939
1.62 0.010702234034346447 0.0009334807103083161 0.011436990240369871
1.6300000000000001 0.010700022580726555 0.0009296870696572925 0.011411831152519642
1.6400000000000001 0.010697809067799867 0.0009258525423293288 0.011386521343444598
1.6500000000000001 0.010695593495737893 0.0009219774639220558 0.011361061112742479
1.6600000000000001 0.010693375864076156 0.0009180621706303439 0.011335450761731085
1.67 0.010691156171779813 0.0009141069992303933 0.011309690593447969
1.68 0.010688934417301616 0.000910112287063827 0.011283780912649954
1.69 0.010686710598636505 0.0009060783720217457 0.01125772202581264
1.7 0.010684484713368582 0.0009020055925287778 0.011231514241129942
1.71 0.01068225675871201 0.0008978942875271067 0.011205157868513468
1.72 0.010680026731553443 0.000893744796460481 0.011178653219591897
1.73 0.01067779462848212 0.0008895574592582348 0.011152000607710261
1.74 0.010675560445823762 0.0008853326163192601 0.011125200347929314
1.75 0.010673324179665565 0.0008810706084960178 0.011098252757024649
1.76 0.010671085825883227 0.000876771777078521 0.011071158153485954
1.77 0.010668845380161858 0.0008724364637783129 0.011043916857516118
1.78 0.010666602838014913 0.0008680650107124497 0.011016529191030317
1.79 0.01066435819480338 0.000863657760387495 0.01098899547765502
1.8 0.010662111445750199 0.0008592150556834847 0.010961316042727069
1.81 0.010659862585953844 0.0008547372398379381 0.010933491213292538
1.82 0.010657611610402315 0.0008502246564298399 0.010905521318105703
1.83 0.010655358513982648 0.0008456776493636418 0.010877406687627881
1.84 0.010653103291490879 0.0008410965628532765 0.010849147654026217
1.85 0.010650845937641939 0.0008364817414061557 0.010820744551172488
1.86 0.010648586447075399 0.0008318335298072232 0.010792197714641814
1.87 0.010646324814364234 0.0008271522731029665 0.010763507481711336
1.8800000000000001 0.010644061034019468 0.0008224383165854714 0.010734674191358871
1.8900000000000001 0.010641795100495103 0.0008176920057764933 0.010705698184261479
1.9000000000000001 0.01063952700819527 0.0008129136864115181 0.010676579802793981
1.9100000000000001 0.010637256751474443 0.000808103704423846 0.010647319391027539
1.92 0.010634984324644894 0.0008032624059287129 0.010617917294728064
1.93 0.01063270972197735 0.0007983901372073886 0.010588373861354586
1.94 0.01063043293770436 0.000793487244691335 0.01055868944005769
1.95 0.010628153966023944 0.0007885540749463429 0.010528864381677766
1.96 0.010625872801098927 0.0007835909746567128 0.010498899038743337
1.97 0.01062358943706135 0.0007785982906094435 0.01046879376546926
1.98 0.010621303868013467 0.0007735763696784469 0.010438548917754894
1.99 0.010619016088027908 0.00076852555880878 0.010408164853182283
2.0 0.010616726091150315 0.0007634462050008987 0.01037764193101417
2.0100000000000002 0.010614433871399005 0.0007583386552949376 0.010346980512192055
2.02 0.010612139422767463 0.0007532032567550068 0.010316180959334315
2.0300000000000002 0.01060984273922302 0.0007480403564535244 0.010285243636733934
2.04 0.010607543814709025 0.0007428503014555495 0.010254168910356581
2.05 0.010605242643145116 0.0007376334388031701 0.010222957147838394
2.06 0.010602939218426666 0.0007323901154998947 0.010191608718483788
2.07 0.01060063353442628 0.0007271206784950838 0.010160123993263232
2.08 0.010598325584993525 0.0007218254746683968 0.010128503344810934
2.09 0.010596015363954946 0.0007165048508142864 0.010096747147422551
2.1 0.010593702865115058 0.0007111591536264924 0.010064855777052744
2.11 0.010591388082255437 0.0007057887296825856 0.01003282961131287
2.12 0.010589071009135144 0.0007003939254285494 0.010000669029468296
2.13 0.01058675163949174 0.0006949750871633592 0.009968374412436094
2.14 0.01058442996703986 0.0006895325610236306 0.009935946142782393
2.15 0.010582105985471883 0.0006840666929682723 0.009903384604719607
2.16 0.010579779688458132 0.0006785778287631816 0.009870690184104036
2.17 0.010577451069647175 0.0006730663139659788 0.009837863268432927
2.18 0.01057512012266457 0.0006675324939107621 0.009804904246841823
2.19 0.010572786841114264 0.0006619767136929089 0.009771813510101684
2.2 0.010570451218577186 0.0006563993181539034 0.009738591450616112
2.21 0.010568113248612915 0.000650800651866206 0.009705238462418333
2.22 0.010565772924757716 0.0006451810591181566 0.009671754941168302
2.23 0.010563430240526634 0.0006395408838989073 0.009638141284149674
2.24 0.010561085189411354 0.00063388046988341 0.009604397890266778
2.25 0.010558737764881988 0.0006282001604174272 0.00957052516004147
2.2600000000000002 0.010556387960385844 0.0006225002985025833 0.009536523495609968
2.27 0.010554035769347601 0.000616781226781452 0.009502393300719692
2.2800000000000002 0.010551681185170369 0.0006110432875227148 0.009468134980726036
2.29 0.010549324201234297 0.0006052868226062991 0.009433748942588952
2.3000000000000003 0.010546964810897895 0.0005995121735086115 0.009399235594869737
2.31 0.01054460300749677 0.0005937196812878026 0.009364595347727501
2.32 0.010542238784344378 0.0005879096865690325 0.00932982861291584
2.33 0.010539872134732894 0.0005820825295298516 0.009294935803779271
2.34 0.010537503051931218 0.0005762385498855498 0.009259917335249675
2.35 0.010535131529186711 0.0005703780868746085 0.009224773623842721
2.36 0.010532757559725901 0.0005645014792441557 0.009189505087654256
2.37 0.010530381136752058 0.0005586090652354922 0.009154112146356586
2.38 0.01052800225344766 0.0005527011825696463 0.009118595221194669
2.39 0.010525620902973612 0.0005467781684329908 0.009082954734982409
2.4 0.010523237078468875 0.0005408403594628953 0.009047191112098812
2.41 0.010520850773052516 0.0005348880917334245 0.009011304778484025
2.42 0.01051846197982132 0.0005289217007410957 0.008975296161635463
2.43 0.010516070691851204 0.0005229415213906556 0.008939165690603811
2.44 0.01051367690219862 0.0005169478879809689 0.008902913795988954
2.45 0.010511280603898946 0.0005109411341908696 0.00886654090993592
2.46 0.010508881789967454 0.0005049215930651326 0.008830047466130732
2.47 0.01050648045339913 0.0004988895970004677 0.008793433899796248
2.48 0.010504076587170045 0.000492845477731554 0.008756700647687871
2.49 0.010501670184236062 0.0004867895663171564 0.008719848148089347
2.5 0.010499261237534866 0.00048072219312626785 0.008682876840808356
2.5100000000000002 0.010496849739984238 0.0004746436878243054 0.008645787167172245
2.52 0.010494435684484427 0.00046855437935938195 0.008608579570023428
2.5300000000000002 0.010492019063916768 0.00046245459594859966 0.008571254493715106
2.54 0.010489599871145092 0.0004563446650644265 0.008533812384106595
2.5500000000000003 0.010487178099015476 0.0004502249134211065 0.008496253688558813
2.56 0.010484753740357748 0.0004440956669611374 0.008458578855929665
2.57 0.01048232678798349 0.0004379572508417988 0.008420788336569361
2.58 0.010479897234688632 0.0004318099894217249 0.00838288258231572
2.59 0.010477465073254252 0.0004256542062475667 0.008344862046489371
2.6 0.010475030296443906 0.00041949022404067036 0.008306727183888982
2.61 0.010472592897007006 0.00041331836468384343 0.008268478450786336
2.62 0.010470152867678467 0.0004071389492081726 0.008230116304921525
2.63 0.010467710201178834 0.00040095229777986846 0.008191641205497879
2.64 0.010465264890214102 0.0003947587296872317 0.008153053613177084
2.65 0.010462816927478615 0.0003885585633276174 0.00811435399007399
2.66 0.010460366305652256 0.00038235211619449356 0.008075542799751687
2.67 0.010457913017403278 0.000376139704864551 0.008036620507216197
2.68 0.010455457055389316 0.00036992164498487264 0.007997587578911386
2.69 0.010452998412253573 0.00036369825126015697 0.007958444482713734
2.7 0.010450537080632021 0.00035746983744002316 0.00791919168792694
2.71 0.010448073053149308 0.0003512367163063571 0.007879829665276741
2.72 0.010445606322419676 0.0003449991996607377 0.007840358886905409
2.73 0.010443136881049319 0.00033875759831189923 0.007800779826366426
2.74 0.010440664721635089 0.00033251222206329557 0.007761092958618967
2.75 0.01043818983676736 0.00032626337970069453 0.00772129876002235
2.7600000000000002 0.010435712219028212 0.00032001137897985556 0.007681397708330593
2.77 0.010433231860993923 0.00031375652661424754 0.007641390282686688
2.7800000000000002 0.010430748755234144 0.00030749912826288494 0.007601276963616992
2.79 0.010428262894313131 0.0003012394885181565 0.007561058233025575
2.8000000000000003 0.010425774270791499 0.00029497791089378095 0.00752073457418843
2.81 0.01042328287722532 0.00028871469781279607 0.007480306471747699
2.82 0.01042078870616774 0.0002824501505956225 0.007439774411705863
2.83 0.01041829175016779 0.0002761845694482058 0.007399138881419841
