#time "field x" "field y" "field z"
### ### ### ###
0.0 3.9599543163030035e-09 -6.264271152891908e-11 5.075746240978616e-10
0.01 1.586163193979051e-08 -2.5095118003883477e-10 2.0792025868925026e-09
0.02 3.573722418592703e-08 -5.65489260885555e-10 4.788200818035581e-09
0.03 6.361821377185544e-08 -1.0068119381499507e-09 8.70783159089334e-09
0.04 9.953537358328326e-08 -1.5754653116534684e-09 1.3911299546475383e-08
0.05 1.4351876546633102e-07 -2.271986584246811e-09 2.0471748718381942e-08
0.06 1.955977390443692e-07 -3.0969040493718394e-09 2.846225955885808e-08
0.07 2.5580093055986833e-07 -4.050737078896711e-09 3.795584596604309e-08
0.08 3.2415626174128766e-07 -5.133996111224253e-09 4.902545231250301e-08
0.09 4.0069093869502345e-07 -6.347182639673569e-09 6.174395047513481e-08
0.1 4.854314508224435e-07 -7.69078920113493e-09 7.618413686652983e-08
0.11 5.784035697620271e-07 -9.165299364997865e-09 9.241872946788469e-08
0.12 6.796323483566307e-07 -1.0771187722352448e-08 1.1052036486354672e-07
0.13 7.891421196459045e-07 -1.2508919875463804e-08 1.3056159527728324e-07
0.14 9.069564958838741e-07 -1.4378952427519735e-08 1.5261488561036006e-07
0.15 1.0330983675817075e-06 -1.638173297265141e-08 1.767526104815187e-07
0.16 1.1675899025756909e-06 -1.8517700086227184e-08 2.0304705126893826e-07
0.17 1.3104525451204158e-06 -2.0787283315419234e-08 2.3157039315426913e-07
0.18 1.46170701500722e-06 -2.319090317004331e-08 2.623947221688283e-07
0.19 1.6213733067078644e-06 -2.572897111367117e-08 2.955920222420387e-07
0.2 1.789470688543492e-06 -2.840188955501572e-08 3.3123417225220303e-07
0.21 1.966017701878857e-06 -3.1210051839588936e-08 3.693929430796972e-07
0.22 2.1510321603418697e-06 -3.4153842241632293e-08 4.1013999466267064e-07
0.23 2.344531149068413e-06 -3.7233635956319435e-08 4.535468730553399e-07
0.24 2.5465310239725235e-06 -4.044979909223145e-08 4.996850074889596e-07
0.25 2.757047411041869e-06 -4.3802688664104124e-08 5.486257074355612e-07
0.26 2.97609520565858e-06 -4.729265258584722e-08 6.004401596745407e-07
0.27 3.203688571945435e-06 -5.092002966383591e-08 6.551994253621857e-07
0.28 3.4398409421373927e-06 -5.468514959047361e-08 7.129744371042224e-07
0.29 3.6845650159784972e-06 -5.8588332938026535e-08 7.738359960314708e-07
0.3 3.937872760144167e-06 -6.262989115273007e-08 8.378547688787011e-07
0.31 4.199775407688832e-06 -6.681012654916555e-08 9.051012850667508e-07
0.32 4.470283457519e-06 -7.112933230490891e-08 9.75645933788026e-07
0.33 4.7494066738916595e-06 -7.558779245544979e-08 1.049558961095435e-06
0.34 5.03715408593813e-06 -8.018578188938134e-08 1.1269104669948635e-06
0.35000000000000003 5.3335339872132715e-06 -8.49235663438609e-08 1.2077704025412597e-06
0.36 5.638553935270108e-06 -8.980140240034026e-08 1.292208566938431e-06
0.37 5.952220751259829e-06 -9.481953748056643e-08 1.3802946046426116e-06
0.38 6.274540519557236e-06 -9.997820984285207e-08 1.4720980024699078e-06
0.39 6.605518587411546e-06 -1.0527764857861569e-07 1.5676880867076994e-06
0.4 6.945159564622597e-06 -1.1071807360919077e-07 1.6671340202300644e-06
0.41000000000000003 7.293467323242515e-06 -1.162996956829046e-07 1.7705047996173335e-06
0.42 7.650444997302666e-06 -1.220227163724249e-07 1.8778692522798382e-06
0.43 8.0160949825661e-06 -1.2788732807237651e-07 1.989296033585955e-06
0.44 8.390418936305337e-06 -1.3389371399722466e-07 2.1048536239944937e-06
0.45 8.773417777105534e-06 -1.4004204817942767e-07 2.224610326191567e-06
0.46 9.165091684693072e-06 -1.4633249546785668e-07 2.348634262231958e-06
0.47000000000000003 9.565440099789432e-06 -1.5276521152648257e-07 2.476993370685124e-06
0.48 9.974461723990542e-06 -1.593403428333308e-07 2.609755403785884e-06
0.49 1.039215451967138e-05 -1.6605802667970252e-07 2.746987924589883e-06
0.5 1.0818515709916037e-05 -1.729183911696619e-07 2.8887583041339194e-06
0.51 1.1253541778472993e-05 -1.7992155521979067e-07 3.0351337186011885e-06
0.52 1.1697228469735806e-05 -1.8706762855920725e-07 3.18618114649158e-06
0.53 1.2149570788749118e-05 -1.9435671172985238e-07 3.3419673657970343e-06
0.54 1.2610563001239944e-05 -2.0178889608703947e-07 3.5025589511821125e-06
0.55 1.3080198633674235e-05 -2.0936426380026958e-07 3.668022271169789e-06
0.56 1.3558470473338784e-05 -2.1708288785431158e-07 3.838423485332619e-06
0.5700000000000001 1.4045370568448364e-05 -2.2494483205054572e-07 4.0138285414892815e-06
0.58 1.4540890228278079e-05 -2.329501510085712e-07 4.1943031729066606e-06
0.59 1.5045020023321072e-05 -2.410988901680772e-07 4.379912895507472e-06
0.6 1.5557749785471334e-05 -2.493910857909767e-07 4.570723005083552e-06
0.61 1.607906860823173e-05 -2.5782676496380267e-07 4.76679857451486e-06
0.62 1.660896484694733e-05 -2.664059456003674e-07 4.968204450994336e-06
0.63 1.7147426119063785e-05 -2.751286364446826e-07 5.1750052532585914e-06
0.64 1.76944393044109e-05 -2.839948370741412e-07 5.387265368824592e-06
0.65 1.824999054551135e-05 -2.930045379029602e-07 5.605048951232377e-06
0.66 1.881406524791447e-05 -3.0215772018588423e-07 5.828419917293893e-06
0.67 1.9386648080555198e-05 -3.11454356022149e-07 6.057441944348019e-06
0.68 1.9967722976138013e-05 -3.2089440835970425e-07 6.2921784675218794e-06
0.6900000000000001 2.0557273131545975e-05 -3.3047783099969644e-07 6.532692676998463e-06
0.7000000000000001 2.1155281008274796e-05 -3.402045686012101e-07 6.77904751529072e-06
0.71 2.1761728332891818e-05 -3.500745566862672e-07 7.031305674522088e-06
0.72 2.2376596097520076e-05 -3.6008772164508503e-07 7.28952959371366e-06
0.73 2.299986456034729e-05 -3.702439807415907e-07 7.5537814560779415e-06
0.74 2.3631513246159617e-05 -3.805432421191929e-07 7.824123186319347e-06
0.75 2.427152094690066e-05 -3.9098540480681104e-07 8.100616447941523e-06
0.76 2.4919865722254954e-05 -4.0157035872515945e-07 8.383322640561468e-06
0.77 2.5576524900256473e-05 -4.1229798469328747e-07 8.672302897230682e-06
0.78 2.6241475077922014e-05 -4.2316815443537326e-07 8.967618081763226e-06
0.79 2.6914692121909247e-05 -4.3418073058777537e-07 9.269328786070991e-06
0.8 2.75961511691995e-05 -4.4533556670633484e-07 9.577495327506e-06
0.81 2.82858266278055e-05 -4.5663250727393233e-07 9.892177746210052e-06
0.8200000000000001 2.8983692177503418e-05 -4.6807138770829963e-07 1.0213435802471588e-05
0.8300000000000001 2.968972077058988e-05 -4.796520343700808e-07 1.054132897408997e-05
0.84 3.040388463266349e-05 -4.913742645711473e-07 1.0875916453747221e-05
0.85 3.112615526343103e-05 -5.032378865831646e-07 1.1217257146387223e-05
0.86 3.185650343753802e-05 -5.152426996464087e-07 1.1565409666602557e-05
0.87 3.259489920542405e-05 -5.273884939788331e-07 1.1920432336028993e-05
0.88 3.334131189420232e-05 -5.396750507853868e-07 1.2282383180747667e-05
0.89 3.4095710108563956e-05 -5.52102142267581e-07 1.2651319928695106e-05
0.9 3.4858061731706495e-05 -5.646695316333021e-07 1.3027300007081051e-05
0.91 3.562833392628682e-05 -5.773769731068793e-07 1.3410380539814334e-05
0.92 3.64064931353984e-05 -5.902242119393909e-07 1.380061834493657e-05
0.93 3.719250508357298e-05 -6.03210984419226e-07 1.4198069932064141e-05
0.9400000000000001 3.798633477780623e-05 -6.16337017882886e-07 1.4602791499838087e-05
0.9500000000000001 3.878794650860803e-05 -6.296020307260386e-07 1.5014838933382426e-05
0.96 3.9597303851076516e-05 -6.430057324148093e-07 1.5434267801770568e-05
0.97 4.041436966599656e-05 -6.565478234973262e-07 1.5861133355500155e-05
0.98 4.1239106100962146e-05 -6.702279956155004e-07 1.629549052397629e-05
0.99 4.207147459152303e-05 -6.840459315170563e-07 1.6737393913003218e-05
1.0 4.291143586235515e-05 -6.980013050678037e-07 1.718689780228459e-05
1.01 4.375894992845521e-05 -7.120937812641482e-07 1.7644056142932276e-05
1.02 4.4613976096359015e-05 -7.26323016245848e-07 1.8108922554983843e-05
1.03 4.547647296538391e-05 -7.406886573090105e-07 1.8581550324928827e-05
1.04 4.634639842889473e-05 -7.551903429193273e-07 1.9061992403243685e-05
1.05 4.7223709675593876e-05 -7.698277027255515e-07 1.955030140193578e-05
1.06 4.8108363190834904e-05 -7.846003575732147e-07 2.0046529592096096e-05
1.07 4.900031475795999e-05 -7.995079195185782e-07 2.0550728901461048e-05
1.08 4.989951945966064e-05 -8.14549991842829e-07 2.1062950911983306e-05
1.09 5.080593167936266e-05 -8.297261690665068e-07 2.1583246857411777e-05
1.1 5.1719505102633924e-05 -8.450360369641693e-07 2.211166762088064e-05
1.11 5.264019271861631e-05 -8.604791725792991e-07 2.2648263732507764e-05
1.12 5.3567946821480645e-05 -8.760551442394361e-07 2.3193085367002316e-05
1.1300000000000001 5.4502719011905144e-05 -8.917635115715541e-07 2.37461823412817e-05
1.1400000000000001 5.54444601985773e-05 -9.076038255176646e-07 2.4307604112098094e-05
1.1500000000000001 5.6393120599718905e-05 -9.235756283506583e-07 2.4877399773674165e-05
1.16 5.7348649744634595e-05 -9.396784536903763e-07 2.545561805534859e-05
1.17 5.831099647528326e-05 -9.559118265199174e-07 2.604230731923104e-05
1.18 5.928010894787261e-05 -9.722752632021712e-07 2.6637515557866817e-05
1.19 6.025593463447708e-05 -9.887682714965876e-07 2.7241290391911244e-05
1.2 6.123842032467864e-05 -1.005390350576172e-06 2.7853679067813776e-05
1.21 6.222751212723039e-05 -1.0221409910447128e-06 2.8474728455511978e-05
1.22 6.322315547174332e-05 -1.0390196749542368e-06 2.9104485046135402e-05
1.23 6.422529511039587e-05 -1.056025875822689e-06 2.9742994949719263e-05
1.24 6.523387511966597e-05 -1.0731590586518487e-06 3.0390303892928368e-05
1.25 6.62488389020866e-05 -1.090418679945462e-06 3.1046457216790884e-05
1.26 6.727012918802308e-05 -1.1078041877276045e-06 3.171149987444223e-05
1.27 6.829768803747357e-05 -1.1253150215612747e-06 3.238547642887928e-05
1.28 6.933145684189224e-05 -1.1429506125671984e-06 3.3068431050724624e-05
1.29 7.03713763260343e-05 -1.160710383442873e-06 3.376040751600126e-05
1.3 7.141738654982448e-05 -1.1785937484818224e-06 3.446144920391737e-05
1.31 7.246942691024663e-05 -1.1966001135930798e-06 3.517159909466175e-05
1.32 7.352743614325681e-05 -1.2147288763208945e-06 3.589089976720962e-05
1.33 7.459135232571811e-05 -1.2329794258646494e-06 3.661939339713868e-05
1.34 7.566111287735767e-05 -1.2513511430990142e-06 3.7357121754456054e-05
1.35 7.67366545627459e-05 -1.2698434005943035e-06 3.810412620143557e-05
1.36 7.781791349329785e-05 -1.2884555626370626e-06 3.8860447690465826e-05
1.37 7.890482512929652e-05 -1.3071869852508675e-06 3.962612676190887e-05
1.3800000000000001 7.999732428193808e-05 -1.3260370162173445e-06 4.040120354196978e-05
1.3900000000000001 8.109534511539916e-05 -1.3450049950974059e-06 4.1185717740576716e-05
1.4000000000000001 8.219882114892575e-05 -1.3640902532526973e-06 4.1979708649272264e-05
1.41 8.330768525894416e-05 -1.38329211386727e-06 4.278321513911538e-05
1.42 8.442186968119313e-05 -1.4026098919694524e-06 4.359627565859428e-05
1.43 8.554130601287811e-05 -1.4220428944539521e-06 4.441892823155043e-05
1.44 8.666592521484716e-05 -1.441590420104162e-06 4.5251210455113756e-05
1.45 8.779565761378735e-05 -1.4612517596146716e-06 4.6093159497648454e-05
1.46 8.893043290444434e-05 -1.4810261956140097e-06 4.694481209671053e-05
1.47 9.007018015186144e-05 -1.500913002687573e-06 4.780620455701603e-05
1.48 9.121482779364122e-05 -1.5209114474007877e-06 4.867737274842088e-05
1.49 9.236430364222799e-05 -1.541020788322462e-06 4.955835210391186e-05
1.5 9.351853488721131e-05 -1.5612402760483594e-06 5.044917761760879e-05
1.51 9.46774480976507e-05 -1.5815691532249716e-06 5.134988384277845e-05
1.52 9.584096922442118e-05 -1.6020066545735051e-06 5.2260504889859465e-05
1.53 9.700902360258029e-05 -1.6225520069140643e-06 5.318107442449904e-05
1.54 9.818153595375538e-05 -1.6432044291900548e-06 5.411162566560115e-05
1.55 9.935843038855171e-05 -1.663963132492772e-06 5.505219138338605e-05
1.56 0.00010053963040898224 -1.684827320086214e-06 5.600280389746162e-05
1.57 0.00010172505891091654 -1.7057961874320788e-06 5.696349507490638e-05
1.58 0.00010291463818655158 -1.7268689222149755e-06 5.7934296328364005e-05
1.59 0.00010410828992690251 -1.74804470436784e-06 5.8915238614149775e-05
1.6 0.00010530593522431383 -1.7693227060975328e-06 5.9906352430368714e-05
1.61 0.0001065074945749912 -1.7907020919106586e-06 6.0907667815045544e-05
1.62 0.00010771288788155322 -1.8121820186395742e-06 6.19192143442666e-05
1.6300000000000001 0.00010892203445560372 -1.8337616354685917e-06 6.294102113033333e-05
1.6400000000000001 0.00011013485302032424 -1.8554400839603906e-06 6.397311681992852e-05
1.6500000000000001 0.00011135126171308606 -1.877216498082613e-06 6.50155295922934e-05
1.6600000000000001 0.00011257117808808293 -1.8990900042346636e-06 6.606828715741771e-05
1.67 0.00011379451911898325 -1.9210597212747093e-06 6.713141675424134e-05
1.68 0.00011502120120160247 -1.943124760546858e-06 6.820494514886846e-05
1.69 0.00011625114015659466 -1.965284225908544e-06 6.928889863279333e-05
1.7 0.00011748425123216471 -1.9875372137581053e-06 7.038330302113873e-05
1.71 0.000118720449106799 -2.0098828130625435e-06 7.148818365090634e-05
1.72 0.00011995964789201683 -2.0323201053854864e-06 7.260356537923953e-05
1.73 0.00012120176113514029 -2.054848164915333e-06 7.372947258169845e-05
1.74 0.00012244670182208419 -2.077466058493598e-06 7.486592915054738e-05
1.75 0.00012369438238016484 -2.1001728456434303e-06 7.601295849305461e-05
1.76 0.00012494471468092868 -2.1229675785983303e-06 7.717058352980468e-05
1.77 0.000126197610042999 -2.145849302331057e-06 7.833882669302272e-05
1.78 0.0001274529792349435 -2.168817054582712e-06 7.951770992491214e-05
1.79 0.00012871073247815848 -2.1918698658920176e-06 8.070725467600398e-05
1.8 0.00012997077944977426 -2.2150067596247724e-06 8.190748190351927e-05
1.81 0.0001312330292855779 -2.2382267520034945e-06 8.311841206974389e-05
1.82 0.00013249739058295528 -2.261528852137258e-06 8.434006514041599e-05
1.83 0.00013376377140385213 -2.2849120620516883e-06 8.557246058312647e-05
1.84 0.00013503207927775262 -2.308375376719167e-06 8.681561736573147e-05
1.85 0.00013630222120467771 -2.3319177840891928e-06 8.806955395477821e-05
1.86 0.00013757410365820155 -2.355538265118947e-06 8.933428831394357e-05
1.87 0.0001388476325884853 -2.379235793804007e-06 9.060983790248484e-05
1.8800000000000001 0.00014012271342533076 -2.4030093372092743e-06 9.189621967370416e-05
1.8900000000000001 0.00014139925108125126 -2.426857855500057e-06 9.319345007342536e-05
1.9000000000000001 0.0001426771499545606 -2.4507803019733276e-06 9.450154503848385e-05
1.9100000000000001 0.0001439563139324807 -2.4747756230891737e-06 9.582051999522936e-05
1.92 0.000145236646394266 -2.498842758502407e-06 9.715038985804137e-05
1.93 0.0001465180502143477 -2.522980641094362e-06 9.849116902785862e-05
1.94 0.00014780042776549348 -2.547188197004855e-06 9.984287139072017e-05
1.95 0.00014908368092198665 -2.5714643456643203e-06 0.00010120551031632075
1.96 0.00015036771106282195 -2.5958079998261257e-06 0.00010257909865657844
1.97 0.00015165241907491968 -2.6202180655990498e-06 0.00010396364874421593
1.98 0.00015293770535635624 -2.6446934424799327e-06 0.00010535917239135457
1.99 0.00015422346981961316 -2.6692330233864976e-06 0.00010676568088812224
2.0 0.0001555096118948426 -2.693835694690343e-06 0.00010818318500127337
2.0100000000000002 0.0001567960305331503 -2.7185003362501003e-06 0.00010961169497282349
2.02 0.00015808262420989624 -2.743225821444753e-06 0.0001110512205186961
2.0300000000000002 0.00015936929092801093 -2.76801101720714e-06 0.00011250177082738304
2.04 0.0001606559282213299 -2.7928547840575972e-06 0.00011396335455861849
2.05 0.00016194243315794489 -2.817755976137794e-06 0.00011543597984206619
2.06 0.00016322870234357112 -2.842713441244712e-06 0.00011691965427602008
2.07 0.00016451463192493235 -2.8677260208647986e-06 0.00011841438492611795
2.08 0.00016580011759316062 -2.892792550208271e-06 0.00011992017832406919
2.09 0.00016708505458721556 -2.9179118582435936e-06 0.0001214370404663956
2.1 0.00016836933769731672 -2.943082767732118e-06 0.00012296497681318588
2.11 0.00016965286126839507 -2.9683040952628662e-06 0.0001245039922868634
2.12 0.00017093551920355885 -2.9935746512874945e-06 0.00012605409127096776
2.13 0.0001722172049675769 -3.0188932401553916e-06 0.00012761527760895005
2.14 0.00017349781159037688 -3.0442586601489624e-06 0.00012918755460298125
2.15 0.0001747772316705605 -3.069669703519039e-06 0.00013077092501277446
2.16 0.00017605535737893444 -3.095125156520475e-06 0.00013236539105442128
2.17 0.00017733208046205666 -3.1206237994478706e-06 0.00013397095439924092
2.18 0.00017860729224579877 -3.1461644066714755e-06 0.00013558761617264386
2.19 0.00017988088363892404 -3.1717457466732148e-06 0.00013721537695300884
2.2 0.00018115274513668132 -3.197366582082915e-06 0.00013885423677057374
2.21 0.00018242276682441322 -3.2230256697146186e-06 0.00014050419510633962
2.22 0.00018369083838118178 -3.248721760603111e-06 0.0001421652508909902
2.23 0.0001849568490834068 -3.2744536000405534e-06 0.00014383740250382282
2.24 0.00018622068780852223 -3.30021992761329e-06 0.0001455206477716953
2.25 0.00018748224303864516 -3.326019477238799e-06 0.0001472149839679858
2.2600000000000002 0.00018874140286426135 -3.351850977202774e-06 0.00014892040781156615
2.27 0.00018999805498792562 -3.377713150196384e-06 0.00015063691546579006
2.2800000000000002 0.00019125208672797622 -3.4036047133536485e-06 0.00015236450253749439
2.29 0.00019250338502226492 -3.429524378288983e-06 0.00015410316407601533
2.3000000000000003 0.00019375183643190126 -3.4554708511348663e-06 0.00015585289457221722
2.31 0.000194997327145012 -3.4814428325796693e-06 0.00015761368795753672
2.32 0.00019623974298051407 -3.507439017905622e-06 0.0001593855376030403
2.33 0.00019747896939190267 -3.5334580970269133e-06 0.00016116843631849563
2.34 0.00019871489147105402 -3.559498754527947e-06 0.00016296237635145776
2.35 0.00019994739395204082 -3.585559669701725e-06 0.0001647673493863684
2.36 0.00020117636121496456 -3.611639516588387e-06 0.0001665833465436705
2.37 0.00020240167728979863 -3.637736964013856e-06 0.00016841035837893552
2.38 0.00020362322586024815 -3.66385067562867e-06 0.00017024837488200593
2.39 0.000204840890267622 -3.689979309946904e-06 0.0001720973854761518
2.4 0.0002060545535147198 -3.7161215203852615e-06 0.00017395737901724115
2.41 0.0002072640982697313 -3.742275955302285e-06 0.0001758283437929246
2.42 0.00020846940687015063 -3.7684412580377046e-06 0.0001777102675218342
2.43 0.00020967036132670387 -3.79461606695192e-06 0.0001796031373527969
2.44 0.00021086684332728898 -3.820799015465626e-06 0.0001815069398640619
2.45 0.0002120587342409305 -3.846988732099549e-06 0.00018342166106254264
2.46 0.00021324591512174648 -3.873183840514339e-06 0.00018534728638307192
2.47 0.0002144282667129294 -3.899382959550574e-06 0.0001872838006876737
2.48 0.00021560566945073956 -3.9255847032689e-06 0.00018923118826484636
2.49 0.00021677800346851163 -3.95178768099031e-06 0.00019118943282886268
2.5 0.0002179451486006743 -3.977990497336534e-06 0.00019315851751908308
2.5100000000000002 0.0002191069843867821 -4.004191752270566e-06 0.00019513842489928283
2.52 0.00022026339007556126 -4.030390041137326e-06 0.0001971291369569951
2.5300000000000002 0.00022141424462896657 -4.056583954704423e-06 0.00019913063510286656
2.54 0.0002225594267262521 -4.082772079203076e-06 0.0002011429001700298
2.5500000000000003 0.00022369881476805357 -4.108952996369128e-06 0.00020316591241348748
2.56 0.00022483228688048367 -4.135125283484204e-06 0.00020519965150951334
2.57 0.00022595972091923904 -4.161287513416989e-06 0.00020724409655506604
2.58 0.00022708099447372004 -4.187438254664611e-06 0.00020929922606721823
2.59 0.00022819598487116167 -4.2135760713941735e-06 0.00021136501798260036
2.6 0.00022930456918077816 -4.239699523484385e-06 0.00021344144965685882
2.61 0.00023040662421791773 -4.265807166567316e-06 0.0002155284978641278
2.62 0.0002315020265482297 -4.291897552070266e-06 0.0002176261387965169
2.63 0.0002325906524918444 -4.317969227257775e-06 0.00021973434806361333
2.64 0.0002336723781275632 -4.34402073527372e-06 0.0002218531006919977
2.65 0.00023474707929706085 -4.370050615183543e-06 0.00022398237112477502
